angle	VV	VH	HV	HH
0	-1.332820352252242	-144.8399617081273	-144.827906271569	-1.534538729541974
0.1	-1.366876591503931	-104.0821383957395	-104.1696564015432	-1.595969651180153
0.2	-1.379990080187403	-99.75637915569324	-99.80885174843203	-1.59216632823453
0.3	-1.39559443691115	-98.8957273149075	-98.93935459327098	-1.590772662335614
0.4	-1.413692356168746	-100.108823016499	-100.1524380801519	-1.591552890554489
0.5	-1.434269687375874	-103.2544615828201	-103.3068235484664	-1.594344702887213
0.6	-1.422444728273899	-109.4831530700813	-109.5696059394596	-1.565912446952334
0.7	-1.43887045334789	-126.6313109619103	-126.4424453327906	-1.561997168790936
0.8	-1.464823267924044	-110.3332699312298	-110.2684715326247	-1.567215144618972
0.9	-1.495962360519036	-105.3703234345368	-105.3411061913479	-1.577409867126696
1	-1.530599284498473	-102.8619557847552	-102.8445360900977	-1.590987410609123
1.1	-1.54238383503628	-101.3892092949914	-101.3775428185257	-1.582925154420491
1.2	-1.571186391382583	-100.4799758497662	-100.4716954031582	-1.589642862519079
1.3	-1.607301059673945	-99.91625113128887	-99.9101870256127	-1.602905353355013
1.4	-1.649626926203085	-99.57910312736183	-99.57458098677556	-1.622140183146973
1.5	-1.695369851580753	-99.39678354942939	-99.39338950092881	-1.644347505230388
1.6	-1.744425510177089	-99.32304746306976	-99.32051992721946	-1.669452963022149
1.7	-1.796819333011717	-99.32667740922156	-99.32483745176241	-1.698000327132873
1.8	-1.852520710667414	-99.38581983220203	-99.38458160256998	-1.729287127267925
1.9	-1.910445224330553	-99.48492628881755	-99.48415094006187	-1.762625606463797
2	-1.97190748019189	-99.61253177946639	-99.61214391104058	-1.799001720148389
2.1	-2.020225359465457	-99.76017150348268	-99.76011345540236	-1.822580141070489
2.2	-2.07455743845376	-99.92200039504854	-99.92174620415034	-1.851203934189116
2.3	-2.136383999794343	-100.0918100654425	-100.0922784204859	-1.886576045643935
2.4	-2.203975258893873	-100.2674862959455	-100.2681549474161	-1.927161240139434
2.5	-2.275433877695738	-100.4481486126182	-100.4466987731593	-1.971086028749182
2.6	-2.339491648616465	-100.6233786578917	-100.625886534418	-2.00771996654924
2.7	-2.407439134617122	-100.8032316693956	-100.8043008833329	-2.047421398008502
2.8	-2.482950813841166	-100.9820367379473	-100.9808552840455	-2.094186493587223
2.9	-2.563688811077975	-101.1536576215724	-101.1547954591973	-2.145155557610802
3	-2.650811810729369	-101.3244583088948	-101.325640458897	-2.202461442711233
3.1	-2.74147159971874	-101.4928429867167	-101.4930775285579	-2.262591173652341
3.2	-2.835791003620723	-101.6557684673116	-101.6568933651671	-2.326252054713086
3.3	-2.934823798436652	-101.8158919498534	-101.817045569245	-2.393586531503236
3.4	-3.036699720082752	-101.9723612916968	-101.9735218804514	-2.464058779557768
3.5	-3.142357297991718	-102.1237392556464	-102.1263544275926	-2.537471333790617
3.6	-3.251108067167719	-102.2746790722588	-102.2756975172494	-2.613604321749742
3.7	-3.34545605919267	-102.4199295079499	-102.4215845082434	-2.67483203020358
3.8	-3.455886510527739	-102.5631609078374	-102.5642112931749	-2.751443696207037
3.9	-3.570233267610306	-102.7008096035143	-102.7036535088142	-2.831412177767747
4	-3.690467660110653	-102.8404380123344	-102.8401668984228	-2.916364456359502
4.1	-3.813445286442987	-102.9713842197195	-102.9737177532593	-3.004080858462532
4.2	-3.927802783379164	-103.1036841435455	-103.104650778948	-3.081719730794031
4.3	-4.055071399700167	-103.2319456495752	-103.232997783503	-3.171616576991132
4.4	-4.187064240498474	-103.3595534605372	-103.3589682858664	-3.265297405743962
4.5	-4.326354280388984	-103.4815061254723	-103.4826331226925	-3.365887566382419
4.6	-4.470007762085777	-103.6031674505039	-103.6042232815324	-3.469893453465793
4.7	-4.618976142572956	-103.7240157235818	-103.7238925198372	-3.578266294160375
4.8	-4.77200443227632	-103.840794399484	-103.8417092376051	-3.690458242716716
4.9	-4.929589991059377	-103.9564644069297	-103.9579210332345	-3.806091328699035
5	-5.091487963259032	-104.0712687817038	-104.0726276455293	-3.925901829905239
5.1	-5.258679664677326	-104.1849290175622	-104.1860233614683	-4.049919274730249
5.2	-5.41870751643144	-104.2971120617016	-104.2982498531751	-4.164451097453767
5.3	-5.589023217789883	-104.4098589600731	-104.409501009856	-4.288753361999012
5.4	-5.765153105971036	-104.5186559533857	-104.5198398350074	-4.41765818083937
5.5	-5.948396304912552	-104.6302626173655	-104.629552625529	-4.553302197944094
5.6	-6.135922687216867	-104.7377086985957	-104.7386643800091	-4.691841755506767
5.7	-6.32312495280131	-104.8479083128911	-104.8474827193354	-4.827440492866982
5.8	-6.518221555252838	-104.9548200882004	-104.9560472280909	-4.968331210237046
5.9	-6.718763285438842	-105.0617044793354	-105.0645386706082	-5.115604121833158
6	-6.929896762517982	-105.1718006090924	-105.1731549378312	-5.271141755472395
6.1	-7.146601832133415	-105.2839734087898	-105.2820539560432	-5.430634220487942
6.2	-7.368920115583127	-105.3950190351368	-105.3912845648602	-5.595676107971377
6.3	-7.59694828843479	-105.4995878576821	-105.5008761109883	-5.76382877460474
6.4	-7.83334534939854	-105.6099688161592	-105.6112034983483	-5.939796125287974
6.5	-8.072516114006326	-105.7211012844036	-105.7222786468674	-6.117743861056243
6.6	-8.321863935058889	-105.832989824717	-105.834210476915	-6.303329636477888
6.7	-8.568105139855984	-105.9479337178709	-105.9471739113799	-6.480941156510211
6.8	-8.824899849800948	-106.0665563076596	-106.0612254084324	-6.66593369914689
6.9	-9.091621994844012	-106.1751214970415	-106.1761861798758	-6.859360877377659
7	-9.363082124395357	-106.2879550754507	-106.2924409515788	-7.058170508303917
7.1	-9.645844100333443	-106.4064131048303	-106.4101141744074	-7.265098086834318
7.2	-9.932539706281405	-106.5258341268368	-106.5291069977154	-7.468249667102174
7.3	-10.22449116361737	-106.647514588751	-106.649597479968	-7.676692810035723
7.4	-10.5298917446911	-106.7711879385058	-106.771531942045	-7.893322715149889
7.5	-10.84131251985579	-106.8951986336077	-106.894951916517	-8.11631704943988
7.6	-11.16215237531352	-107.020358719414	-107.0198853209431	-8.346066218026563
7.7	-11.48953118780429	-107.1455740792544	-107.1463073400649	-8.580972587541689
7.8	-11.82391248771545	-107.2721875797066	-107.2743000710862	-8.822500091962088
7.9	-12.15936663918276	-107.4032560692377	-107.4039250319575	-9.068916109200787
8	-12.50340924735815	-107.5390204714075	-107.5351177759096	-9.320043775393568
8.1	-12.85437912821052	-107.6735826337485	-107.6678301812008	-9.578195549287807
8.199999999999999	-13.21013416155802	-107.8050606012974	-107.8020451696977	-9.829509317966075
8.300000000000001	-13.5725535666167	-107.9369396749915	-107.9375512231768	-10.08539785749821
8.4	-13.94363031844513	-108.0740573740826	-108.0746265339124	-10.35462353336957
8.5	-14.31363327465095	-108.209181086379	-108.2129335875169	-10.62592365256981
8.6	-14.67967204252277	-108.3498330602201	-108.3527771198522	-10.89895374903839
8.699999999999999	-15.04198294738488	-108.4927648241824	-108.4936560214002	-11.16951218611182
8.800000000000001	-15.42350218770004	-108.6408517995215	-108.6360510229396	-11.44109047127812
8.9	-15.79250725341184	-108.7845789025072	-108.7792726389495	-11.7176170183985
9	-16.12590862875395	-108.921722871533	-108.9234383339076	-11.99678646492312
9.1	-16.46372414223685	-109.06649784079	-109.0685006807625	-12.27916923839051
9.199999999999999	-16.75394646013067	-109.2137449980777	-109.2144378577639	-12.55738849767917
9.300000000000001	-17.01693136689151	-109.3567924137388	-109.3608616067038	-12.83462590992648
9.4	-17.24826177452655	-109.5075316508105	-109.5079732598382	-13.11207088772114
9.5	-17.43656955520993	-109.6549483682763	-109.6553678472996	-13.38014503029846
9.6	-17.5778287274068	-109.8060933902362	-109.8031765875615	-13.64983414053219
9.699999999999999	-17.69576563432614	-109.9528993046806	-109.9508101260872	-13.89429015192454
9.800000000000001	-17.79584298870092	-110.1035449043211	-110.0984788805762	-14.11920098814823
9.9	-17.83117848862493	-110.2344700390174	-110.2454087952805	-14.33140184362478
10	-17.79799623607771	-110.384874110182	-110.3925610928795	-14.53716543367612
10.1	-17.73789989336969	-110.5327633761456	-110.5390103864705	-14.72309685088686
10.2	-17.6414140855156	-110.6738390300779	-110.6843810457299	-14.88231007128283
10.3	-17.52559791189255	-110.8220542255601	-110.8292442919657	-15.01156648731906
10.4	-17.37516899313593	-110.9726743352256	-110.9729262786842	-15.11728830697932
10.5	-17.1925182277494	-111.1084001257267	-111.1149118131232	-15.20453121140611
10.6	-16.98504640069363	-111.24797475845	-111.2555433256364	-15.27164175830982
10.7	-16.76604904078246	-111.3916247358259	-111.3946018407718	-15.3102812889988
10.8	-16.53415112566782	-111.5311217694247	-111.5318183275733	-15.33058107047825
10.9	-16.29980567732641	-111.6666358884991	-111.6667398224701	-15.32944026898303
11	-16.06025393026621	-111.7955697312693	-111.7994483544832	-15.30433298379156
11.1	-15.82100008039839	-111.9203652727477	-111.9296336532585	-15.26148325450496
11.2	-15.59517652871296	-112.0515652061593	-112.0571758210635	-15.18752102687575
11.3	-15.3819343054726	-112.1762715926513	-112.182218378257	-15.07796931150078
11.4	-15.15985628209255	-112.3086926497598	-112.3046748411353	-14.9688066815319
11.5	-14.93841788605494	-112.4233538338118	-112.423417755235	-14.8549936482277
11.6	-14.72952464532656	-112.5531135868012	-112.53960650695	-14.7370341205583
11.7	-14.53080431778534	-112.6578643801151	-112.6518223742725	-14.59003706074845
11.8	-14.34404655661552	-112.7599626078688	-112.7606008918902	-14.42536869867925
11.9	-14.15801899893003	-112.8625385656468	-112.8660683678482	-14.27635831442822
12	-13.98025740255317	-112.9684958400292	-112.9682932541401	-14.12638722653136
12.1	-13.80541408960934	-113.0901975161935	-113.0676395099569	-13.98231675505276
12.2	-13.64523041689533	-113.1745528279555	-113.1619983333247	-13.83948640453647
12.3	-13.49596843322152	-113.258460327149	-113.2528549229527	-13.69709905990167
12.4	-13.3501832823664	-113.3364816378233	-113.3398222080644	-13.55746426579367
12.5	-13.21877975750573	-113.4069773417865	-113.4233180902281	-13.41831804620433
12.6	-13.09099430181469	-113.4920694808385	-113.5036836267219	-13.28497561086431
12.7	-12.97150149995907	-113.5792163705167	-113.5807507917344	-13.13966205758133
12.8	-12.8590176749919	-113.6519165192667	-113.6538576664763	-12.99723534625723
12.9	-12.76119962825028	-113.7100381414551	-113.7228768754838	-12.87229183998533
13	-12.66892292180553	-113.7580269831974	-113.7884056963023	-12.75019422306475
13.1	-12.57513957953272	-113.8523088016237	-113.8526707187786	-12.63753013588307
13.2	-12.49492095741453	-113.9168033930995	-113.9129093073708	-12.5130548223191
13.3	-12.42565196473155	-113.9698636760344	-113.9695761714956	-12.39683675133209
13.4	-12.35894019222514	-114.0228828450061	-114.0235216017947	-12.28758775044386
13.5	-12.29311037908661	-114.0698775848778	-114.0743922415037	-12.19882158913091
13.6	-12.24220523851749	-114.1173561754105	-114.1232478880051	-12.10853519201118
13.7	-12.20124388274355	-114.1629199881771	-114.169671612058	-12.03183958718572
13.8	-12.16775336316552	-114.2053058224439	-114.2133638631278	-11.95871439000374
13.9	-12.13499238366491	-114.2459658502517	-114.2549521048897	-11.89120669749049
14	-12.12152115688925	-114.2858245086741	-114.294615147163	-11.83602460585573
14.1	-12.10757908392035	-114.3292875151995	-114.332370647428	-11.78489834420183
14.2	-12.08716313554241	-114.3741788860457	-114.3689096554403	-11.71269057712823
14.3	-12.08328766845171	-114.3930554537944	-114.4025883184597	-11.65876996365266
14.4	-12.09928481644054	-114.4255991957969	-114.4354741993219	-11.62782113462841
14.5	-12.10568144239555	-114.4506248845136	-114.4665757103836	-11.58990377555671
14.6	-12.12374118340452	-114.4907130221091	-114.497558583279	-11.56192550348574
14.7	-12.13857461432024	-114.5260204362974	-114.5268930047514	-11.52093983104042
14.8	-12.16446126825581	-114.5611880465008	-114.5553741892259	-11.50234385471451
14.9	-12.19930588867072	-114.5844907055315	-114.5825911490177	-11.48840538937851
15	-12.24577870143327	-114.6225328010715	-114.6095721803235	-11.4789490962465
15.1	-12.29559612856464	-114.6542158932543	-114.6362596694754	-11.48298554979479
15.2	-12.35194615569183	-114.6714623986654	-114.6610682539188	-11.4868420977565
15.3	-12.41605540983173	-114.6962633936104	-114.6860614121356	-11.50001062079372
15.4	-12.49357441195913	-114.7224250212628	-114.7104450948149	-11.52422003790494
15.5	-12.57838857295384	-114.7357115144533	-114.7342446559611	-11.55202615123453
15.6	-12.65676380098987	-114.77551877774	-114.7590225801917	-11.57376386228775
15.7	-12.74459454469353	-114.8030879146569	-114.7832234226974	-11.6007046925069
15.8	-12.84248463308469	-114.8241208833012	-114.8067763999348	-11.64020103214945
15.9	-12.94496258777957	-114.8513609812892	-114.8303314128817	-11.69092694439435
16	-13.0620893710306	-114.8574397749957	-114.8528926938791	-11.74317621335361
16.1	-13.16696222169543	-114.895962128265	-114.877902419996	-11.78861896022147
16.2	-13.28983994263794	-114.9054146400712	-114.9009113408663	-11.84488652582581
16.3	-13.42435749018476	-114.9259777202093	-114.924238456812	-11.91356765141309
16.4	-13.55896453048874	-114.9445602008618	-114.947285378641	-11.98102052518878
16.5	-13.71401983186421	-114.9811671280491	-114.9722955255789	-12.06825558625124
16.6	-13.87128628962044	-115.0031698871111	-114.9960431249123	-12.15505781692358
16.7	-14.03947100437635	-115.0306404648734	-115.0198822374234	-12.25281988087404
16.8	-14.21367227435805	-115.0445519855272	-115.0436617052104	-12.35205868527857
16.9	-14.40747290720077	-115.0722371966275	-115.0683357542373	-12.46495207787285
17	-14.60386753202454	-115.0882734090627	-115.0918735028155	-12.58378959562585
17.1	-14.78294450574555	-115.1137033434846	-115.1168586777951	-12.67901078949607
17.2	-14.99559117201219	-115.1399062404212	-115.1417331550711	-12.80430508885621
17.3	-15.21276420661235	-115.1611603981037	-115.1660834532426	-12.93445254370547
17.4	-15.44213280811332	-115.1919851953962	-115.1915895820087	-13.07160307277929
17.5	-15.66493000411938	-115.2115619620091	-115.2161280135459	-13.20337959263519
17.6	-15.9011911390963	-115.2513261743257	-115.2421448314685	-13.34461422759109
17.7	-16.15369428235103	-115.2806168748867	-115.267543323589	-13.4963639666602
17.8	-16.42148326566714	-115.3033424229944	-115.2926384472278	-13.65730674295666
17.9	-16.7096231854825	-115.3172747144707	-115.3173432368258	-13.83103217622142
18	-16.99394292072956	-115.3345915959103	-115.3425775551346	-14.00629453096077
18.1	-17.28899162296595	-115.3618486151023	-115.3682334730533	-14.18918011180508
18.2	-17.60659439443718	-115.3947879208763	-115.3944485203018	-14.38546661322842
18.3	-17.94931368266522	-115.4171571317544	-115.4195610880437	-14.59428566820991
18.4	-18.29039201016847	-115.4456626226318	-115.4452569297106	-14.7977126215157
18.5	-18.6013828380953	-115.467376835857	-115.4703390543882	-14.98462013029326
18.6	-18.96065251448274	-115.5010071438614	-115.4966329094016	-15.2040306798565
18.7	-19.32934841947215	-115.5116578842979	-115.5208398865425	-15.42277532284928
18.8	-19.68734453428995	-115.542360084475	-115.5464561818708	-15.655144417232
18.9	-20.0337181146857	-115.5863785604837	-115.5729926853746	-15.8714447947762
19	-20.39219503104566	-115.6009002009219	-115.5973074437075	-16.09870187564263
19.1	-20.77473043247042	-115.6261789464624	-115.6223558561772	-16.34613376255002
19.2	-21.14495287607676	-115.6601073945215	-115.6480692222321	-16.59854135550805
19.3	-21.50027704668521	-115.6897316205621	-115.6735172526479	-16.84740782972972
19.4	-21.8629794376552	-115.6907628985702	-115.6963178533339	-17.11447021141155
19.5	-22.19401879527274	-115.7184692419251	-115.7213080863075	-17.37955652622259
19.6	-22.47170136573911	-115.7548475155303	-115.7466937293652	-17.64641848936666
19.7	-22.74252321606177	-115.7848172965796	-115.771413436312	-17.91946162820845
19.8	-22.9451621755578	-115.8014322205323	-115.7952359976512	-18.16981413341018
19.9	-23.09400022218484	-115.8237042176003	-115.8193888183361	-18.40859355748513
20	-23.18517976690482	-115.843532439126	-115.8435630821392	-18.6701654088043
20.1	-23.20828859185911	-115.8559752578525	-115.8666486496077	-18.92008593218239
20.2	-23.17797429622093	-115.8936906256805	-115.891804259854	-19.14623684876128
20.3	-23.07297986925547	-115.9047650395461	-115.9143701706917	-19.32481409424604
20.4	-22.90740320092839	-115.9444808233877	-115.939582867251	-19.51561043772065
20.5	-22.70788647803955	-115.9674621544795	-115.9633182409907	-19.70477703928596
20.6	-22.44214785372238	-115.9832868405992	-115.9864722460632	-19.85089973660745
20.7	-22.16309197696719	-115.9991229194906	-116.0095959456942	-19.98371806003973
20.8	-21.84517310942729	-116.0286559956268	-116.0339525425474	-20.0853242610157
20.9	-21.50554038033093	-116.0587568053999	-116.0585009278739	-20.17680487889248
21	-21.17964835037797	-116.0784966894971	-116.0826534597922	-20.23834097935958
21.1	-20.82683958440883	-116.0958832435192	-116.1058073602302	-20.25464672097038
21.2	-20.51136134178323	-116.1125616674368	-116.1302606926596	-20.18507591876034
21.3	-20.17117145826222	-116.1316925304008	-116.1538991465075	-20.13161826640238
21.4	-19.80908347691035	-116.1524031128352	-116.1781252704574	-20.0407157319551
21.5	-19.48646665570259	-116.1889881334223	-116.2032841016721	-19.94734773348948
21.6	-19.17100062251554	-116.2115877452273	-116.2276685668773	-19.79495325149957
21.7	-18.86585363020816	-116.2569650241304	-116.2548242624051	-19.59592878301233
21.8	-18.56284190694446	-116.2898821152461	-116.2810969051504	-19.44739393742126
21.9	-18.26300036173777	-116.2867849373663	-116.3038730671797	-19.22873066895889
22	-17.97482262180025	-116.3133737940993	-116.3299811091551	-19.04350006184967
22.1	-17.69025938198084	-116.3449837872281	-116.3568174075963	-18.82209041717184
22.2	-17.4286835940579	-116.3743476002196	-116.3833555180648	-18.63926048036284
22.3	-17.16254859347631	-116.3739928931182	-116.4082881835031	-18.39454197168094
22.4	-16.91025929475087	-116.4216844894997	-116.4375135718971	-18.19932626594522
22.5	-16.68022177278328	-116.4602013037629	-116.4678606225556	-17.96068975825268
22.6	-16.46392551003529	-116.4964604550896	-116.4976547864634	-17.72197650452493
22.7	-16.24936063417147	-116.5387139697372	-116.528030327005	-17.50638817118583
22.8	-16.03323020994358	-116.5631787042594	-116.5574972829728	-17.28479143942844
22.9	-15.84412010339624	-116.5941959691887	-116.5893628897822	-17.0508896850253
23	-15.66858712668064	-116.606619485097	-116.6187085912494	-16.82470929523694
23.1	-15.4959908761429	-116.6378912917119	-116.650022587191	-16.61548844275274
23.2	-15.31969577144416	-116.6550142334911	-116.681253636167	-16.41227674635045
23.3	-15.15207186265716	-116.7110297369022	-116.7180030515605	-16.21291579078153
23.4	-14.98753980886978	-116.7301050917659	-116.7510844256473	-16.03601433088955
23.5	-14.83594944166631	-116.7879712754079	-116.7881653854147	-15.84686141229105
23.6	-14.69109396684571	-116.843760408981	-116.8269662242623	-15.66929318512334
23.7	-14.55581298834573	-116.8948388198515	-116.8662101452782	-15.51976827585495
23.8	-14.43498852213873	-116.9257828435817	-116.9038132203855	-15.34404490486587
23.9	-14.32158424423769	-116.9618583778103	-116.9423849682221	-15.17873865274779
24	-14.2089554865933	-116.9963333361424	-116.9830605684739	-15.032998296076
24.1	-14.09722756972817	-117.0548963526753	-117.0253659549454	-14.88439130706422
24.2	-13.98353315866409	-117.0757831674215	-117.0657272226363	-14.74567992757074
24.3	-13.90274759307371	-117.124366841789	-117.1100311929536	-14.5960378640638
24.4	-13.80698844481994	-117.1788333365511	-117.1564065645091	-14.4639247528128
24.5	-13.7273173607895	-117.199221692093	-117.2004025675673	-14.33635062553683
24.6	-13.65345494307316	-117.2423811561629	-117.247351861754	-14.22959571575125
24.7	-13.57726009515345	-117.2845944033048	-117.2956683123549	-14.12606154008581
